 # Egap(eV), Auger_coef(cm6s-1), eta (eV) =   0.10000000000000001     
   1.0201874000000000        3.7298272670212401E-036
   1.0301874000000000        4.3086396632753010E-036
   1.0401874000000000        4.9335678422797252E-036
   1.0501874000000000        5.5928563839437341E-036
   1.0601874000000000        6.2721307971062404E-036
   1.0701874000000000        6.9552165464927155E-036
   1.0801874000000000        7.6252521843093789E-036
   1.0901874000000000        8.2660264329972526E-036
   1.1001874000000000        8.8634397301061363E-036
   1.1101874000000000        9.4069699128777996E-036
   1.1201874000000001        9.8910118278028295E-036
   1.1301874000000001        1.0315963255509921E-035
   1.1401874000000001        1.0688945235977631E-035
   1.1501874000000001        1.1024073155668605E-035
   1.1601874000000001        1.1342234017939047E-035
   1.1701873999999999        1.1670371905076546E-035
   1.1801873999999999        1.2040333046104554E-035
   1.1901873999999999        1.2487368287736689E-035
   1.2001873999999999        1.3048427855416320E-035
   1.2101873999999999        1.3760405405220552E-035
   1.2201873999999999        1.4658491537480135E-035
   1.2301873999999999        1.5774779848487036E-035
   1.2401873999999999        1.7137233023767532E-035
   1.2501874000000002        1.8769067145615795E-035
   1.2601874000000002        2.0688556181785888E-035
   1.2701874000000000        2.2909203430967093E-035
   1.2801874000000000        2.5440180196358402E-035
   1.2901874000000000        2.8286900593711685E-035
   1.3001874000000000        3.1451589775744727E-035
   1.3101874000000000        3.4933713429157519E-035
   1.3201874000000000        3.8730169370167002E-035
   1.3301874000000000        4.2835195232141093E-035
   1.3401874000000000        4.7240014797462322E-035
   1.3501874000000000        5.1932321878223741E-035
   1.3601874000000000        5.6895774548213336E-035
   1.3701873999999998        6.2109731841797722E-035
   1.3801873999999998        6.7549497315240800E-035
   1.3901873999999999        7.3187328563897060E-035
   1.4001873999999999        7.8994422661674719E-035
   1.4101874000000001        8.4943994521729389E-035
   1.4201874000000001        9.1015435381239058E-035
   1.4301874000000001        9.7199385370599808E-035
   1.4401874000000001        1.0350339521371692E-034
   1.4501874000000001        1.0995770698125558E-034
   1.4601874000000001        1.1662057101334954E-034
   1.4701873999999999        1.2358245144074118E-034
   1.4801873999999999        1.3096846851964200E-034
   1.4901873999999999        1.3893849124448567E-034
   1.5001873999999999        1.4768443410716950E-034
   1.5101874000000000        1.5742452898873392E-034
   1.5201874000000000        1.6839463212876770E-034
   1.5301874000000000        1.8083697211036511E-034
   1.5401874000000000        1.9498711950658168E-034
   1.5501874000000000        2.1106031864270178E-034
   1.5601874000000000        2.2923860986002420E-034
   1.5701874000000000        2.4966032332622768E-034
   1.5801874000000000        2.7241348488282378E-034
   1.5901874000000000        2.9753440314912892E-034
   1.6001874000000000        3.2501220273802489E-034
   1.6101874000000000        3.5479937377438653E-034
   1.6201874000000001        3.8682761214994494E-034
   1.6301874000000001        4.2102745348685028E-034
   1.6401874000000001        4.5734959644870855E-034
   1.6501874000000001        4.9578549214619038E-034
   1.6601874000000001        5.3638482299387946E-034
   1.6701873999999999        5.7926791127499841E-034
   1.6801873999999999        6.2463180757061856E-034
   1.6901873999999999        6.7274966399388408E-034
   1.7001873999999999        7.2396381094337068E-034
   1.7101873999999999        7.7867355408674058E-034
   1.7201873999999999        8.3731897935738539E-034
   1.7301873999999999        9.0036199034482049E-034
   1.7401873999999999        9.6826551279022609E-034
   1.7501874000000002        1.0414714841051542E-033
   1.7601874000000000        1.1203781318460835E-033
   1.7701874000000002        1.2053173132896684E-033
   1.7801874000000000        1.2965333893151459E-033
   1.7901874000000002        1.3941661144330058E-033
   1.8001874000000000        1.4982410457878742E-033
   1.8101873999999998        1.6086716088448554E-033
   1.8201874000000000        1.7252768194481495E-033
   1.8301873999999998        1.8478175076990354E-033
   1.8401874000000000        1.9760517253649906E-033
   1.8501873999999998        2.1098071438948968E-033
   1.8601874000000000        2.2490652093910985E-033
   1.8701873999999998        2.3940492763453019E-033
   1.8801874000000001        2.5453074943786206E-033
   1.8901873999999999        2.7037812351351991E-033
   1.9001874000000001        2.8708513304618511E-033
   1.9101874000000001        3.0483569920307652E-033
   1.9201873999999999        3.2385853729946439E-033
   1.9301874000000001        3.4442326088994989E-033
   1.9401873999999999        3.6683392683390520E-033
   1.9501874000000001        3.9142041991042795E-033
   1.9601873999999999        4.1852809145607843E-033
   1.9701874000000001        4.4850604174522409E-033
   1.9801873999999999        4.8169443722320853E-033
   1.9901874000000002        5.1841134131637656E-033
   2.0001874000000002        5.5893973983322703E-033
   2.0101874000000000        6.0351573819485724E-033
   2.0201874000000002        6.5231922384464935E-033
   2.0301874000000000        7.0546850803909131E-033
   2.0401874000000002        7.6302045776890834E-033
   2.0501874000000000        8.2497729472701535E-033
   2.0601874000000002        8.9130052902762124E-033
   2.0701874000000000        9.6193145638657788E-033
   2.0801874000000002        1.0368164266325165E-032
   2.0901874000000000        1.1159339265691308E-032
   2.1001874000000003        1.1993197007621930E-032
   2.1101874000000000        1.2870859407322253E-032
   2.1201873999999998        1.3794312072987215E-032
   2.1301874000000001        1.4766392656003837E-032
   2.1401873999999999        1.5790672658512850E-032
   2.1501874000000001        1.6871263479339655E-032
   2.1601873999999999        1.8012602676655767E-032
   2.1701874000000001        1.9219294339135304E-032
   2.1801873999999999        2.0496082396899965E-032
   2.1901874000000001        2.1848023685263179E-032
   2.2001873999999999        2.3280897559708205E-032
   2.2101873999999997        2.4801843561098597E-032
   2.2201873999999999        2.6420164612381594E-032
   2.2301873999999997        2.8148180171980212E-032
   2.2401873999999999        3.0001972903144868E-032
   2.2501873999999997        3.2001854351689206E-032
   2.2601874000000000        3.4172387472844587E-032
   2.2701873999999997        3.6541849165334722E-032
   2.2801874000000000        3.9141090499879520E-032
   2.2901873999999998        4.2001845970066522E-032
   2.3001874000000000        4.5154640753670133E-032
   2.3101873999999998        4.8626529159692109E-032
   2.3201874000000000        5.2438951641153386E-032
   2.3301874000000002        5.6606009936847239E-032
   2.3401874000000000        6.1133425309162830E-032
   2.3501874000000003        6.6018367429811782E-032
   2.3601874000000000        7.1250233531878753E-032
   2.3701874000000003        7.6812337393153613E-032
   2.3801874000000001        8.2684356307770617E-032
   2.3901874000000003        8.8845300124100280E-032
   2.4001874000000001        9.5276722114703574E-032
   2.4101873999999999        1.0196589024892150E-031
   2.4201874000000001        1.0890867290678703E-031
   2.4301873999999999        1.1611195071189941E-031
   2.4401874000000001        1.2359542742058678E-031
   2.4501873999999999        1.3139276038059041E-031
   2.4601874000000001        1.3955195415007429E-031
   2.4701873999999999        1.4813495876494782E-031
   2.4801874000000002        1.5721639708016581E-031
   2.4901873999999999        1.6688133204533160E-031
   2.5001873999999997        1.7722199573038962E-031
   2.5101874000000000        1.8833345376468954E-031
   2.5201873999999997        2.0030827668702110E-031
   2.5301874000000000        2.1323042354769591E-031
   2.5401873999999998        2.2716868852275342E-031
   2.5501874000000000        2.4217018475888237E-031
   2.5601873999999998        2.5825440742051862E-031
   2.5701874000000000        2.7540840596278432E-031
   2.5801873999999998        2.9358349773276767E-031
   2.5901874000000000        3.1269378588850118E-031
   2.6001873999999998        3.3261653749463880E-031
   2.6101873999999996        3.5319427590066056E-031
   2.6201873999999998        3.7423828729561262E-031
   2.6301873999999996        3.9553316420756661E-031
   2.6401873999999999        4.1684201765221764E-031
   2.6501874000000001        4.3791207089376267E-031
   2.6601873999999999        4.5848046915156217E-031
   2.6701874000000001        4.7828025969873898E-031
   2.6801874000000003        4.9704657672125425E-031
   2.6901874000000001        5.1452307908011376E-031
   2.7001873999999999        5.3046863037142263E-031
   2.7101874000000001        5.4466409370692803E-031
   2.7201873999999999        5.5691896903273407E-031
   2.7301874000000002        5.6707746714398387E-031
   2.7401873999999999        5.7502352863596781E-031
   2.7501874000000002        5.8068428426165109E-031
   2.7601874000000000        5.8403152614443047E-031
   2.7701874000000002        5.8508091060968946E-031
   2.7801874000000000        5.8388882238408310E-031
   2.7901874000000002        5.8054706715492052E-031
   2.8001874000000000        5.7517579325180104E-031
   2.8101873999999998        5.6791524498389493E-031
   2.8201874000000000        5.5891709795054871E-031
   2.8301873999999998        5.4833620573063117E-031
   2.8401874000000000        5.3632358906492100E-031
   2.8501873999999998        5.2302141840822739E-031
   2.8601874000000000        5.0856057706043764E-031
   2.8701873999999998        4.9306114754767080E-031
   2.8801874000000001        4.7663584818329730E-031
   2.8901873999999999        4.5939608065625220E-031
   2.9001873999999996        4.4145986820311148E-031
   2.9101873999999999        4.2296061660133150E-031
   2.9201873999999997        4.0405537498589295E-031
   2.9301873999999999        3.8493116729894087E-031
   2.9401873999999997        3.6580805059887146E-031
   2.9501873999999999        3.4693784868547495E-031
   2.9601873999999997        3.2859798772652386E-031
   2.9701873999999999        3.1108046698679014E-031
   2.9801873999999997        2.9467664566209134E-031
   2.9901873999999999        2.7965911657838203E-031
   3.0001874000000002        2.6626237666263971E-031
   3.0101874000000000        2.5466422636442308E-031
   3.0201874000000002        2.4496980845420209E-031
   3.0301874000000000        2.3719994621850984E-031
   3.0401874000000002        2.3128501321518554E-031
   3.0501874000000000        2.2706503403103310E-031
   3.0601874000000002        2.2429615415613651E-031
   3.0701874000000000        2.2266309126406117E-031
   3.0801874000000002        2.2179673208866829E-031
   3.0901874000000000        2.2129568734197115E-031
   3.1001873999999998        2.2075036232119537E-031
   3.1101874000000000        2.1976793543402672E-031
   3.1201873999999998        2.1799655514199274E-031
   3.1301874000000001        2.1514707048653865E-031
   3.1401873999999999        2.1101071325914730E-031
   3.1501874000000001        2.0547136690676968E-031
   3.1601873999999999        1.9851139945605381E-031
   3.1701874000000001        1.9021050165638581E-031
   3.1801873999999999        1.8073753238204459E-031
   3.1901873999999997        1.7033598323250124E-031
   3.2001873999999999        1.5930426674623588E-031
   3.2101873999999997        1.4797253245905397E-031
   3.2201873999999999        1.3667805133538528E-031
   3.2301873999999997        1.2574132892128998E-031
   3.2401873999999999        1.1544498680082296E-031
   3.2501873999999997        1.0601710134512609E-031
   3.2601874000000000        9.7620153726322570E-032
   3.2701873999999997        9.0346099177175649E-032
   3.2801874000000000        8.4217396196097919E-032
   3.2901873999999998        7.9193238820126452E-032
   3.3001874000000000        7.5179784255807964E-032
   3.3101873999999998        7.2042914442703277E-032
   3.3201874000000000        6.9622029548689259E-032
   3.3301874000000002        6.7743524507044683E-032
   3.3401874000000000        6.6232897217001922E-032
   3.3501874000000003        6.4924811012897556E-032
   3.3601874000000000        6.3670812182982863E-032
   3.3701874000000003        6.2344723327263577E-032
   3.3801874000000001        6.0845953901495482E-032
   3.3901873999999999        5.9101075942019939E-032
   3.4001874000000001        5.7064017449678495E-032
   3.4101873999999999        5.4715159808337201E-032
   3.4201874000000001        5.2059530165315824E-032
   3.4301874000000003        4.9124194606332640E-032
   3.4401873999999997        4.5954911932752733E-032
   3.4501873999999999        4.2612113063557793E-032
   3.4601874000000001        3.9166322405144028E-032
   3.4701874000000004        3.5693216185387098E-032
   3.4801873999999997        3.2268592932100389E-032
   3.4901873999999999        2.8963587674564659E-032
   3.5001874000000002        2.5840475648283497E-032
   3.5101873999999995        2.2949375656506369E-032
   3.5201873999999997        2.0326081698679417E-032
   3.5301874000000000        1.7991137416762762E-032
   3.5401874000000002        1.5950140312985289E-032
   3.5501873999999995        1.4195141576910947E-032
   3.5601873999999998        1.2706909778603946E-032
   3.5701874000000000        1.1457764022464193E-032
   3.5801873999999994        1.0414659033921221E-032
   3.5901873999999996        9.5422192997133234E-033
   3.6001873999999998        8.8054650552673982E-033
   3.6101874000000000        8.1720398044953433E-033
   3.6201873999999998        7.6138262543699064E-033
   3.6301873999999996        7.1079146802653895E-033
   3.6401873999999999        6.6369561824105065E-033
   3.6501874000000001        6.1889868816321936E-033
   3.6601873999999999        5.7568444098781583E-033
   3.6701874000000001        5.3373143279543580E-033
   3.6801874000000003        4.9301429269068991E-033
   3.6901873999999997        4.5370375908725664E-033
   3.7001873999999999        4.1607509537607828E-033
   3.7101874000000001        3.8043152566387402E-033
   3.7201874000000004        3.4704630615481108E-033
   3.7301873999999997        3.1612433842651928E-033
   3.7401873999999999        2.8778207629609102E-033
   3.7501874000000002        2.6204298973919563E-033
   3.7601874000000004        2.3884502549075519E-033
   3.7701873999999997        2.1805625844668585E-033
   3.7801874000000000        1.9949512646546874E-033
   3.7901874000000002        1.8295213488560366E-033
   3.8001873999999995        1.6821056853573065E-033
   3.8101873999999998        1.5506444688235653E-033
   3.8201874000000000        1.4333262201620026E-033
