 # egap(eV) auger_ceof(cm6s-1) (eta_im=0.001,0.002,0.004,0.010,0.020,0.040eV) (gaussian_eta=0.100eV)
 1.0201874000  0.75660111E-30  0.73821662E-30  0.70542351E-30  0.66139197E-30  0.63946552E-30  0.62424881E-30
 1.0301874000  0.65127781E-30  0.63421502E-30  0.60375728E-30  0.56286071E-30  0.54270824E-30  0.52919639E-30
 1.0401874000  0.56184379E-30  0.54697169E-30  0.52040516E-30  0.48466427E-30  0.46709689E-30  0.45546642E-30
 1.0501874000  0.49038453E-30  0.47818230E-30  0.45640126E-30  0.42698740E-30  0.41244433E-30  0.40270941E-30
 1.0601874000  0.43645533E-30  0.42689002E-30  0.40997509E-30  0.38701933E-30  0.37548960E-30  0.36748405E-30
 1.0701874000  0.39828053E-30  0.39068295E-30  0.37788083E-30  0.36048369E-30  0.35151031E-30  0.34489012E-30
 1.0801874000  0.37420290E-30  0.36696200E-30  0.35669141E-30  0.34305197E-30  0.33579063E-30  0.33004706E-30
 1.0901874000  0.36448915E-30  0.35419923E-30  0.34387708E-30  0.33138231E-30  0.32465783E-30  0.31911967E-30
 1.1001874000  0.37377064E-30  0.35322367E-30  0.33861374E-30  0.32368772E-30  0.31597985E-30  0.30977820E-30
 1.1101874000  0.41445077E-30  0.36864923E-30  0.34237451E-30  0.31988264E-30  0.30917677E-30  0.30114850E-30
 1.1201874000  0.51106289E-30  0.41049052E-30  0.35939786E-30  0.32145079E-30  0.30491039E-30  0.29342886E-30
 1.1301874000  0.70443594E-30  0.49560870E-30  0.39699745E-30  0.33116938E-30  0.30463978E-30  0.28738821E-30
 1.1401874000  0.10526024E-29  0.64784767E-30  0.46534622E-30  0.35270084E-30  0.31016309E-30  0.28391493E-30
 1.1501874000  0.16236287E-29  0.89495362E-30  0.57600591E-30  0.38990008E-30  0.32315754E-30  0.28369363E-30
 1.1601874000  0.24760377E-29  0.12604983E-29  0.73847627E-30  0.44563446E-30  0.34466172E-30  0.28700602E-30
 1.1701874000  0.36272874E-29  0.17509381E-29  0.95479876E-30  0.52011072E-30  0.37448003E-30  0.29361544E-30
 1.1801874000  0.50196113E-29  0.23415564E-29  0.12137368E-29  0.60913560E-30  0.41062133E-30  0.30270542E-30
 1.1901874000  0.65009625E-29  0.29685360E-29  0.14875126E-29  0.70317309E-30  0.44902927E-30  0.31287703E-30
 1.2001874000  0.78394656E-29  0.35347698E-29  0.17342514E-29  0.78812985E-30  0.48389924E-30  0.32224135E-30
 1.2101874000  0.87777319E-29  0.39321603E-29  0.19073152E-29  0.84824728E-30  0.50872037E-30  0.32864954E-30
 1.2201874000  0.91121130E-29  0.40744485E-29  0.19691218E-29  0.87043955E-30  0.51785962E-30  0.33006966E-30
 1.2301874000  0.87639669E-29  0.39271113E-29  0.19039098E-29  0.84845780E-30  0.50817485E-30  0.32504905E-30
 1.2401874000  0.78088966E-29  0.35201766E-29  0.17235156E-29  0.78505192E-30  0.48001616E-30  0.31312446E-30
 1.2501874000  0.64491941E-29  0.29375198E-29  0.14633010E-29  0.69110720E-30  0.43716975E-30  0.29501365E-30
 1.2601874000  0.49433262E-29  0.22879548E-29  0.11702124E-29  0.58214562E-30  0.38574580E-30  0.27248007E-30
 1.2701874000  0.35261510E-29  0.16718382E-29  0.88855930E-30  0.47376527E-30  0.33246880E-30  0.24789451E-30
 1.2801874000  0.23531748E-29  0.11571119E-29  0.64940096E-30  0.37787219E-30  0.28304333E-30  0.22365208E-30
 1.2901874000  0.14845837E-29  0.77170356E-30  0.46669010E-30  0.30088854E-30  0.24114059E-30  0.20165863E-30
 1.3001874000  0.90340917E-30  0.51036896E-30  0.33965067E-30  0.24402858E-30  0.20819461E-30  0.18304555E-30
 1.3101874000  0.54968147E-30  0.34866645E-30  0.25848196E-30  0.20488977E-30  0.18383720E-30  0.16815046E-30
 1.3201874000  0.35261388E-30  0.25656216E-30  0.21022068E-30  0.17936591E-30  0.16661887E-30  0.15669090E-30
 1.3301874000  0.25105010E-30  0.20740205E-30  0.18283219E-30  0.16316601E-30  0.15469383E-30  0.14801630E-30
 1.3401874000  0.20128571E-30  0.18165858E-30  0.16712933E-30  0.15268327E-30  0.14629983E-30  0.14134665E-30
 1.3501874000  0.17639034E-30  0.16702016E-30  0.15707622E-30  0.14530582E-30  0.14001416E-30  0.13595420E-30
 1.3601874000  0.16190152E-30  0.15679023E-30  0.14926434E-30  0.13938769E-30  0.13484253E-30  0.13127893E-30
 1.3701874000  0.15117906E-30  0.14797031E-30  0.14214134E-30  0.13406493E-30  0.13020359E-30  0.12697852E-30
 1.3801874000  0.14182519E-30  0.13965752E-30  0.13528291E-30  0.12902102E-30  0.12584843E-30  0.12291572E-30
 1.3901874000  0.13337422E-30  0.13190958E-30  0.12881069E-30  0.12425202E-30  0.12174239E-30  0.11909443E-30
 1.4001874000  0.12598922E-30  0.12503955E-30  0.12298530E-30  0.11986584E-30  0.11793969E-30  0.11557233E-30
 1.4101874000  0.11984579E-30  0.11926078E-30  0.11798003E-30  0.11594801E-30  0.11448750E-30  0.11238782E-30
 1.4201874000  0.11494808E-30  0.11459497E-30  0.11381965E-30  0.11251259E-30  0.11138678E-30  0.10953186E-30
 1.4301874000  0.11118457E-30  0.11094663E-30  0.11043830E-30  0.10952912E-30  0.10861146E-30  0.10696949E-30
 1.4401874000  0.10847553E-30  0.10824267E-30  0.10778855E-30  0.10698801E-30  0.10615876E-30  0.10468714E-30
 1.4501874000  0.10690974E-30  0.10655252E-30  0.10593354E-30  0.10495607E-30  0.10408994E-30  0.10272864E-30
 1.4601874000  0.10682665E-30  0.10614384E-30  0.10508009E-30  0.10358798E-30  0.10253213E-30  0.10119297E-30
 1.4701874000  0.10887552E-30  0.10748465E-30  0.10555316E-30  0.10309172E-30  0.10164070E-30  0.10019454E-30
 1.4801874000  0.11417282E-30  0.11126533E-30  0.10775606E-30  0.10367858E-30  0.10155029E-30  0.99813506E-31
 1.4901874000  0.12477488E-30  0.11857322E-30  0.11219556E-30  0.10554471E-30  0.10235321E-30  0.10007096E-30
 1.5001874000  0.14473600E-30  0.13138251E-30  0.11966208E-30  0.10892534E-30  0.10413032E-30  0.10094877E-30
 1.5101874000  0.18192183E-30  0.15346569E-30  0.13162204E-30  0.11423383E-30  0.10703030E-30  0.10244435E-30
 1.5201874000  0.25033251E-30  0.19160955E-30  0.15077280E-30  0.12225177E-30  0.11136171E-30  0.10462694E-30
